"Time (s)","Acceleration x (m/s^2)","Acceleration y (m/s^2)","Acceleration z (m/s^2)","Absolute acceleration (m/s^2)"


4.755213792E0,3.960314484E0,-1.007554779E1,1.001267853E0,1.087213371E1
4.765134792E0,3.885170746E0,-1.011267059E1,7.090754700E-1,1.085649328E1
4.775055792E0,3.772455139E0,-1.006970993E1,4.698728943E-1,1.076342215E1
4.784976792E0,3.760030975E0,-9.898765411E0,3.550616455E-1,1.059478449E1
4.794897792E0,4.005370789E0,-9.473200378E0,3.390449524E-1,1.029074691E1
4.804819792E0,4.278852081E0,-8.920699310E0,4.480183411E-1,9.903947281E0
4.814740792E0,4.580175476E0,-8.495733032E0,6.384223938E-1,9.672800541E0
4.824661792E0,4.892575836E0,-8.231831818E0,7.946974182E-1,9.608948817E0
4.834582792E0,5.209317169E0,-8.053702240E0,9.113049316E-1,9.634810938E0
4.844503792E0,5.507497101E0,-7.887847137E0,9.735754395E-1,9.669462545E0
4.854424792E0,5.829028473E0,-7.702532501E0,1.013991394E0,9.712608219E0
4.864345792E0,6.137836304E0,-7.482639771E0,1.051563263E0,9.734922584E0
4.874266792E0,6.440806274E0,-7.238347778E0,1.122515717E0,9.753855933E0
4.884187792E0,6.772965546E0,-7.014263763E0,1.212029572E0,9.825577546E0
4.894108792E0,7.068900146E0,-6.776857452E0,1.322649536E0,9.881525591E0
4.904029792E0,7.258705444E0,-6.574927368E0,1.492845612E0,9.906919937E0
4.913950792E0,7.303761749E0,-6.480773163E0,1.663341064E0,9.905153203E0
4.923871792E0,7.338938599E0,-6.524931335E0,1.741927643E0,9.973417699E0
4.933792792E0,7.428602142E0,-6.657256165E0,1.729952545E0,1.012402713E1
4.943713792E0,7.451504517E0,-6.786587219E0,1.775158539E0,1.023395688E1
4.953634792E0,7.352410583E0,-6.882088623E0,1.889520721E0,1.024652984E1
4.963555792E0,7.203021240E0,-6.980883179E0,2.022593994E0,1.023265026E1
4.973476792E0,7.062014465E0,-7.103029175E0,2.148931274E0,1.024416797E1
4.983397792E0,6.945556641E0,-7.255112915E0,2.266885986E0,1.029641649E1
4.993318792E0,6.825356598E0,-7.397317200E0,2.363135834E0,1.033877195E1
5.003240792E0,6.684050446E0,-7.518415375E0,2.403851166E0,1.034319102E1
5.013161792E0,6.467301178E0,-7.612419891E0,2.371668091E0,1.026643710E1
5.023082792E0,6.209686890E0,-7.648644562E0,2.302062836E0,1.011738445E1
5.033003792E0,6.004613342E0,-7.626191254E0,2.178120575E0,9.947782852E0
5.042924792E0,5.927673340E0,-7.528893585E0,2.052831116E0,9.799778846E0
5.052845792E0,5.974226532E0,-7.375312958E0,2.003284149E0,9.700503660E0
5.062766792E0,6.130202179E0,-7.182214508E0,2.028880920E0,9.658154160E0
5.072687792E0,6.307433624E0,-6.959028625E0,2.162103882E0,9.637763824E0
5.082608792E0,6.431076508E0,-6.766229553E0,2.371219025E0,9.631369948E0
5.092529792E0,6.532715149E0,-6.627168732E0,2.598895569E0,9.661779898E0
5.102450792E0,6.602170715E0,-6.483766937E0,2.764900360E0,9.657772303E0
5.112371792E0,6.586603088E0,-6.413862305E0,2.860850830E0,9.628366288E0
5.122292792E0,6.524332581E0,-6.383325806E0,2.862497406E0,9.565963379E0
5.132213792E0,6.407126312E0,-6.449488220E0,2.780318298E0,9.506699518E0
5.142134792E0,6.327940979E0,-6.467600555E0,2.686164093E0,9.438653056E0
5.152055792E0,6.294111328E0,-6.418053589E0,2.615061951E0,9.361933469E0
5.161976792E0,6.250252533E0,-6.509214020E0,2.616109772E0,9.395719995E0
5.171897792E0,6.300248566E0,-6.618037720E0,2.689457245E0,9.524953308E0
5.181818792E0,6.377487946E0,-6.708449707E0,2.786305847E0,9.666392825E0
5.191739792E0,6.398594055E0,-6.814579010E0,2.884950714E0,9.782813174E0
5.201661792E0,6.310128021E0,-6.952741699E0,2.917882233E0,9.832210815E0
5.211582792E0,6.076912994E0,-7.091353455E0,2.845582581E0,9.762863595E0
5.221503792E0,5.788612518E0,-7.229965210E0,2.634371796E0,9.629140490E0
5.231424792E0,5.523813171E0,-7.389982452E0,2.339784393E0,9.518347735E0
5.241345792E0,5.341492310E0,-7.557783508E0,1.992805939E0,9.466937581E0
5.251266792E0,5.277874603E0,-7.669750671E0,1.675615540E0,9.459847944E0
5.261187792E0,5.329966278E0,-7.715705109E0,1.502874756E0,9.497330066E0
5.271108792E0,5.415288849E0,-7.689808960E0,1.444047089E0,9.515449919E0
5.281029792E0,5.514233093E0,-7.579188995E0,1.480421448E0,9.489073722E0
5.290950792E0,5.625900879E0,-7.404502258E0,1.624122620E0,9.440084146E0
5.300871792E0,5.763165436E0,-7.194488983E0,1.820514221E0,9.396223688E0
5.310792792E0,5.898034973E0,-7.008575592E0,2.078876953E0,9.393012177E0
5.320713792E0,6.054459686E0,-6.875951385E0,2.333647156E0,9.454157741E0
5.330634792E0,6.176605682E0,-6.779102783E0,2.553539886E0,9.519834991E0
5.340555792E0,6.273603973E0,-6.734495544E0,2.730471954E0,9.600365313E0
5.350476792E0,6.374194794E0,-6.698869629E0,2.829865265E0,9.670230142E0
5.360397792E0,6.481371918E0,-6.691684570E0,2.862946472E0,9.745936939E0
5.370318792E0,6.646029510E0,-6.694528656E0,2.865940247E0,9.859007844E0
5.380239792E0,6.874304810E0,-6.677015076E0,2.880310364E0,1.000673697E1
5.390160792E0,7.106322327E0,-6.667584686E0,2.834206238E0,1.014836083E1
5.400081792E0,7.240144043E0,-6.664141846E0,2.694247284E0,1.020242328E1
5.410003792E0,7.219786377E0,-6.723268890E0,2.549647980E0,1.018962044E1
5.419924792E0,7.095993805E0,-6.752907257E0,2.495011597E0,1.010841072E1
5.429845792E0,6.905140686E0,-6.785689087E0,2.440824280E0,9.984195884E0
5.439766792E0,6.793622589E0,-6.865323486E0,2.364932098E0,9.943785913E0
5.449687792E0,6.728657684E0,-6.880891113E0,2.282303925E0,9.890925536E0
5.459608792E0,6.680158539E0,-6.883884888E0,2.234403534E0,9.849109016E0
5.469529792E0,6.647975464E0,-6.948700104E0,2.212698669E0,9.867930193E0
5.479450792E0,6.774462433E0,-6.886878662E0,2.320474548E0,9.935141725E0
5.489371792E0,6.784192200E0,-6.824009399E0,2.408940582E0,9.919443675E0
5.499292792E0,6.788084106E0,-6.795568542E0,2.420316925E0,9.905340563E0
5.509213792E0,6.855893097E0,-6.606511688E0,2.433489532E0,9.827061522E0
5.519134792E0,6.641389160E0,-6.507717133E0,2.356848907E0,9.592349505E0
5.529055792E0,6.691983948E0,-6.375242615E0,2.259251862E0,9.514756252E0
5.538976792E0,6.851851501E0,-6.226152649E0,2.173031158E0,9.509727137E0
5.548897792E0,6.747967529E0,-6.276597748E0,1.993554382E0,9.428945017E0
5.558818792E0,6.642886047E0,-6.388415222E0,1.769320679E0,9.384576695E0
5.568739792E0,6.947203217E0,-6.209686890E0,1.680106201E0,9.468188879E0
5.578660792E0,7.149282990E0,-6.050867157E0,1.599873047E0,9.501833212E0
5.588581792E0,7.063211975E0,-6.096522217E0,1.484313354E0,9.447736908E0
5.598502792E0,6.803651733E0,-6.295608215E0,1.523831177E0,9.393956630E0
5.608423792E0,6.966213684E0,-6.288722534E0,1.746118927E0,9.545946549E0
5.618345792E0,7.207362213E0,-6.081104279E0,1.941013641E0,9.627742896E0
5.628266792E0,6.859635315E0,-6.225404205E0,1.886377258E0,9.453500586E0
5.638187792E0,6.745722198E0,-6.324049072E0,1.630559235E0,9.389200608E0
5.648108792E0,6.864125977E0,-6.212680664E0,1.380130005E0,9.360469288E0
5.658029792E0,6.962321777E0,-6.169121246E0,1.333277435E0,9.397319309E0
5.667950792E0,6.988966370E0,-6.159241791E0,1.437311096E0,9.425909693E0
5.677871792E0,6.995852051E0,-6.121669922E0,1.548380127E0,9.424132298E0
5.687792792E0,6.894961853E0,-6.117179260E0,1.673070831E0,9.368006568E0
5.697713792E0,6.735243988E0,-6.126759338E0,1.895508270E0,9.300195867E0
5.707634792E0,6.597380676E0,-6.165977783E0,2.029928741E0,9.255556413E0
5.717555792E0,6.386768646E0,-6.234235840E0,1.902244263E0,9.125516067E0
5.727476792E0,6.145769806E0,-6.335874481E0,1.816023560E0,9.011755296E0
5.737397792E0,5.978118439E0,-6.328689423E0,1.926493835E0,8.916366321E0
5.747318792E0,5.851930847E0,-6.258934479E0,2.028731232E0,8.805402084E0
5.757239667E0,5.598956909E0,-6.450985107E0,2.185305634E0,8.816977262E0
5.767160667E0,5.090164948E0,-6.983727264E0,2.585872650E0,9.020474658E0
5.777081667E0,4.587510223E0,-7.466623077E0,3.092269592E0,9.292891986E0
5.787002667E0,4.189038849E0,-7.688611450E0,3.612737274E0,9.471782468E0
5.796923667E0,3.970643005E0,-7.673043823E0,3.951632538E0,9.500368788E0
5.806844667E0,4.002526703E0,-7.519014130E0,4.135150909E0,9.468646500E0
5.816765667E0,4.245621185E0,-7.317084045E0,4.124223633E0,9.411388779E0
5.826687667E0,4.595443726E0,-7.121590576E0,4.063599701E0,9.399361569E0
5.836608667E0,4.903652802E0,-6.917265472E0,4.127965851E0,9.430507647E0
5.846529667E0,5.167554016E0,-6.772815857E0,4.161945190E0,9.481373155E0
5.856450667E0,5.393434296E0,-6.665339355E0,4.117936707E0,9.511744579E0
5.866371667E0,5.509143677E0,-6.582561493E0,4.009562073E0,9.474036514E0
5.876292667E0,5.555696869E0,-6.506519623E0,3.915707245E0,9.409215086E0
5.886213667E0,5.559439087E0,-6.479875031E0,3.933220825E0,9.400338793E0
5.896134667E0,5.555098114E0,-6.532715149E0,4.037254486E0,9.478127772E0
5.906055667E0,5.588478699E0,-6.593788147E0,4.222868500E0,9.619862507E0
5.915976667E0,5.712870026E0,-6.625073090E0,4.456831970E0,9.817934028E0
5.925897667E0,5.856720886E0,-6.589746552E0,4.589755554E0,9.939406179E0
5.935818667E0,6.227200470E0,-6.582561493E0,4.534969482E0,1.013282240E1
5.945739667E0,6.577621765E0,-6.506669312E0,4.397854614E0,1.024416804E1
5.955660667E0,6.894812164E0,-6.382577362E0,4.288731537E0,1.032806597E1
5.965581667E0,7.363637238E0,-6.459517365E0,4.127367096E0,1.062937802E1
5.975502667E0,7.844138031E0,-6.880591736E0,3.721710663E0,1.107809435E1
5.985423667E0,8.247848511E0,-7.635172577E0,3.255430298E0,1.170131154E1
5.995344667E0,8.529862061E0,-8.478518829E0,2.874921570E0,1.236563797E1
6.005265667E0,8.627159729E0,-9.173972626E0,2.835104370E0,1.290842653E1
6.015186667E0,8.463999023E0,-9.634265442E0,3.294049988E0,1.324043486E1
6.025107667E0,7.956853638E0,-9.595196686E0,3.921694794E0,1.306747907E1
6.035029667E0,6.952292633E0,-8.971144409E0,3.982767792E0,1.202822697E1
6.044950667E0,5.795797577E0,-8.078700256E0,2.920127563E0,1.036261610E1
6.054871667E0,5.035378876E0,-7.090305634E0,1.103355560E0,8.766120458E0
6.064792667E0,4.701573029E0,-6.250701599E0,-4.860392761E-1,7.836599620E0
6.074713667E0,4.595443726E0,-5.611979828E0,-1.202599182E0,7.352459821E0
6.084634667E0,4.534670105E0,-5.230273590E0,-1.086889801E0,7.007162352E0
6.094555667E0,4.465064850E0,-5.398823090E0,-4.917274475E-1,7.023239334E0
6.104476667E0,4.706063690E0,-6.044280853E0,5.134323120E-2,7.660483184E0
6.114397667E0,5.172793121E0,-7.041806488E0,3.951782227E-1,8.746484615E0
6.124318667E0,5.613626404E0,-8.104596405E0,3.233276367E-1,9.864168746E0
6.134239667E0,5.868246918E0,-8.952133942E0,-1.429527283E-1,1.070502029E1
6.144160667E0,5.975873108E0,-9.439071350E0,-5.306465149E-1,1.118430655E1
6.154081667E0,6.089337158E0,-9.535919952E0,-6.092330933E-1,1.133070877E1
6.164002667E0,6.620881805E0,-9.152417450E0,-2.640509033E-1,1.129922758E1
6.173923667E0,7.038064270E0,-8.693322144E0,1.760339355E-1,1.118656277E1
6.183844667E0,6.903344421E0,-8.479117584E0,3.567082214E-1,1.093978245E1
6.193765667E0,6.355633392E0,-8.535849609E0,3.382965088E-1,1.064749965E1
6.203686667E0,5.686075745E0,-8.690777435E0,1.637594604E-1,1.038690940E1
6.213607667E0,5.166356506E0,-8.721763000E0,-6.227050781E-2,1.013727118E1
6.223528667E0,4.754562836E0,-8.669371948E0,-2.926414490E-1,9.891891465E0
6.233449667E0,4.233047333E0,-8.612190857E0,-4.839436340E-1,9.608471393E0
6.243370667E0,3.822002106E0,-8.563691711E0,-5.936654663E-1,9.396645918E0
6.253291667E0,3.575315094E0,-8.511001282E0,-6.818321228E-1,9.256614710E0
6.263213667E0,3.445534973E0,-8.446635132E0,-8.143066406E-1,9.158627168E0
6.273134667E0,3.445085907E0,-8.471483459E0,-8.352630615E-1,9.183262671E0
6.283055667E0,3.516337738E0,-8.608598328E0,-7.414082336E-1,9.328573440E0
6.292976667E0,3.658242645E0,-8.834179230E0,-5.248086548E-1,9.576057959E0
6.302897667E0,3.825894012E0,-9.070388031E0,-2.418969727E-1,9.847228959E0
6.312818667E0,4.009262695E0,-9.182804260E0,9.011260986E-2,1.002028950E1
6.322739667E0,4.145479431E0,-9.217532043E0,4.709207153E-1,1.011778943E1
6.332660667E0,4.128414917E0,-9.177565155E0,8.414002991E-1,1.009848832E1
6.342581667E0,4.189787292E0,-9.200766907E0,1.127455444E0,1.017249158E1
6.352502667E0,4.267475739E0,-9.223369904E0,1.233435059E0,1.023734651E1
6.362423667E0,4.427792358E0,-9.217382355E0,1.103056183E0,1.028504816E1
6.372344667E0,4.618944855E0,-9.179960175E0,9.231303406E-1,1.031787236E1
6.382265667E0,4.744683380E0,-9.114845581E0,7.518864441E-1,1.030328897E1
6.392186667E0,4.781207428E0,-9.005722504E0,7.035369873E-1,1.022046704E1
6.402107667E0,4.797673187E0,-8.817713470E0,7.637118530E-1,1.006742244E1
6.412028667E0,4.828059998E0,-8.640332336E0,8.622070313E-1,9.935235638E0
6.421949667E0,4.853656769E0,-8.439749451E0,9.020242310E-1,9.777576516E0
6.431870667E0,4.780458984E0,-8.240813141E0,7.774832153E-1,9.558675090E0
6.441791667E0,4.710554352E0,-8.110883331E0,4.632865906E-1,9.390973601E0
6.451712667E0,4.772974548E0,-8.043673096E0,3.143463135E-2,9.353232118E0
6.461633667E0,4.842879181E0,-8.122708740E0,-3.600013733E-1,9.463692568E0
6.471554667E0,4.926106110E0,-8.315657501E0,-6.152206421E-1,9.684791042E0
6.481476667E0,4.960684204E0,-8.594377899E0,-7.589218140E-1,9.952270171E0
6.491397667E0,4.825365601E0,-8.773555298E0,-8.416996765E-1,1.004827767E1
6.501318667E0,4.635260925E0,-8.843759308E0,-8.319699097E-1,1.001947586E1
6.511239667E0,4.574936371E0,-8.898695068E0,-8.137078857E-1,1.003887131E1
6.521160667E0,4.698579254E0,-8.962761841E0,-8.406518555E-1,1.015452817E1
6.531081667E0,4.967120819E0,-8.992400208E0,-7.978408813E-1,1.030398470E1
6.541002667E0,5.190157013E0,-8.945996704E0,-7.450007629E-1,1.036935933E1
6.550923667E0,5.324427795E0,-8.803642731E0,-7.617658997E-1,1.031668280E1
6.560844667E0,5.388344879E0,-8.636141052E0,-6.569837952E-1,1.020043237E1
6.570765667E0,5.413043518E0,-8.305179291E0,-6.480024719E-1,9.934633883E0
6.580686667E0,5.451812897E0,-8.039032745E0,-6.150709534E-1,9.732760329E0
6.590607667E0,5.525459747E0,-7.859705658E0,-5.144801331E-1,9.621349607E0
6.600528667E0,5.400319977E0,-7.841743011E0,-3.106040955E-1,9.526429773E0
6.610449667E0,5.232967987E0,-8.031099243E0,-1.035845947E-1,9.586096118E0
6.620370667E0,5.051245880E0,-8.308023376E0,5.792953491E-2,9.723255278E0
6.630291667E0,4.965623932E0,-8.614136810E0,1.050814819E-1,9.943430803E0
6.640212667E0,5.062472534E0,-8.830586700E0,3.742218018E-3,1.017879677E1
6.650133667E0,4.878954163E0,-8.881480865E0,-2.574645996E-2,1.013338833E1
6.660054667E0,4.727469177E0,-8.984167328E0,-1.841171265E-2,1.015207202E1
6.669975667E0,4.514462128E0,-8.970096588E0,4.101470947E-2,1.004214535E1
6.679896667E0,4.272415466E0,-8.911568298E0,9.610015869E-2,9.883259518E0
6.689817667E0,4.032165070E0,-8.696166229E0,1.437011719E-1,9.586569369E0
6.699738667E0,3.898792419E0,-8.380921783E0,1.697470093E-1,9.244957886E0
6.709659667E0,4.123026123E0,-8.015082550E0,1.911524963E-1,9.015399712E0
6.719581667E0,4.382736053E0,-7.690108337E0,2.377056885E-1,8.854526839E0
6.729502667E0,4.471501465E0,-7.560926971E0,4.309538269E-1,8.794752027E0
6.739423667E0,4.485123138E0,-7.674540710E0,5.310955811E-1,8.904884457E0
6.749344667E0,4.405788116E0,-7.899522858E0,4.269122314E-1,9.055146844E0
6.759265542E0,4.326004028E0,-8.198002167E0,1.305285645E-1,9.270306796E0
6.769186542E0,4.375850372E0,-8.508456573E0,-2.070195007E-1,9.569992519E0
6.779107542E0,4.577181702E0,-8.738977203E0,-4.261637878E-1,9.874306581E0
6.789028542E0,4.872667236E0,-8.881331177E0,-4.396357727E-1,1.013973417E1
6.798949542E0,5.180277557E0,-8.928782501E0,-2.466870117E-1,1.032566158E1
6.808870542E0,5.476062469E0,-8.965905304E0,6.361770630E-2,1.050612989E1
6.818791542E0,5.669909363E0,-9.011410675E0,4.342469788E-1,1.065560721E1
6.828712542E0,5.762416992E0,-9.002579041E0,7.978408813E-1,1.071860201E1
6.838633542E0,5.762866058E0,-8.984616394E0,1.135239258E0,1.073418488E1
6.848554542E0,5.574108582E0,-8.973988495E0,1.363963623E0,1.065192718E1
6.858475542E0,5.252577209E0,-9.051676941E0,1.430874481E0,1.056266181E1
6.868396542E0,4.854405212E0,-9.216484222E0,1.285077667E0,1.049572561E1
6.878317542E0,4.561165009E0,-9.495354309E0,1.017434235E0,1.058305968E1
6.888238542E0,4.277205505E0,-9.797126770E0,8.515791321E-1,1.072396228E1
6.898159542E0,4.264182587E0,-1.010533585E1,9.078620911E-1,1.100569304E1
6.908080542E0,4.395609283E0,-1.056263489E1,1.095571747E0,1.149308114E1
6.918001542E0,4.353846130E0,-1.075109299E1,1.450334015E0,1.168954427E1
6.927922542E0,4.291875000E0,-1.078013260E1,1.856140137E0,1.175060450E1
6.937843542E0,4.082759857E0,-1.081231567E1,2.136058044E0,1.175320562E1
6.947765542E0,3.915707245E0,-1.119042938E1,1.945055237E0,1.201422960E1
6.957686542E0,4.079915771E0,-1.169517975E1,1.247356110E0,1.244904974E1
6.967607542E0,4.532724152E0,-1.218810471E1,6.104306030E-1,1.301799178E1
6.977528542E0,5.045857086E0,-1.272518784E1,4.207749939E-1,1.369555150E1
6.987449542E0,5.539829865E0,-1.187525528E1,3.866459656E-1,1.310957276E1
6.997370542E0,6.270161133E0,-9.899214478E0,6.002517700E-2,1.171806174E1
7.007291542E0,7.147636414E0,-8.241860962E0,-2.008822632E-1,1.091133961E1
7.017212542E0,7.750133514E0,-7.226372681E0,-5.658233643E-2,1.059661423E1
7.027133542E0,8.314160614E0,-6.590045929E0,3.025209045E-1,1.061345801E1
7.037054542E0,9.021439819E0,-6.076613617E0,1.073417816E0,1.092995129E1
7.046975542E0,9.622589722E0,-5.814508667E0,2.082319794E0,1.143410686E1
7.056896542E0,9.889185333E0,-5.907914429E0,2.037413177E0,1.169831150E1
7.066817542E0,9.883946228E0,-6.200256500E0,9.571096802E-1,1.170690534E1
7.076738542E0,9.625433807E0,-6.585555267E0,-2.176473999E-1,1.166472822E1
7.086659542E0,9.288634186E0,-6.939718781E0,-1.057700500E0,1.164290136E1
7.096580542E0,8.964109039E0,-7.378755798E0,-1.423689423E0,1.169735780E1
7.106501542E0,8.582402802E0,-7.822582855E0,-1.478176117E0,1.170621395E1
7.116422542E0,7.851023712E0,-8.144114227E0,-1.125958557E0,1.136806723E1
7.126343542E0,6.930138702E0,-8.404572601E0,-5.941145325E-1,1.090947456E1
7.136264542E0,5.875132599E0,-8.693022766E0,-6.960525513E-2,1.049241025E1
7.146185542E0,4.723876648E0,-9.282197571E0,5.789959717E-1,1.043117628E1
7.156106542E0,4.155658264E0,-9.998009033E0,1.666035461E0,1.095469554E1
7.166027542E0,3.889811096E0,-1.076860657E1,2.650089111E0,1.175229723E1
7.175948542E0,3.274740143E0,-1.134550690E1,3.386557617E0,1.228467428E1
7.185869542E0,2.580034790E0,-1.170281387E1,3.563639374E0,1.250247806E1
7.195790542E0,2.157912598E0,-1.148396896E1,3.242856445E0,1.212659259E1
7.205712542E0,2.475552063E0,-1.042806473E1,2.466570740E0,1.099803906E1
7.215633542E0,3.162323914E0,-9.064250793E0,1.791923676E0,9.765855080E0
7.225554542E0,3.970643005E0,-7.751031647E0,1.242117004E0,8.797008134E0
7.235475542E0,4.687352600E0,-6.662345581E0,1.077010345E0,8.216938257E0
7.245396542E0,5.266049194E0,-5.877976685E0,1.342707825E0,8.005295018E0
7.255317542E0,5.713768158E0,-5.346581726E0,1.672771454E0,8.001952703E0
7.265238542E0,5.974825287E0,-5.059778137E0,1.877096558E0,8.051297007E0
7.275159542E0,6.095624084E0,-4.891677704E0,1.940714264E0,8.053043871E0
7.285080542E0,6.139632568E0,-4.708159332E0,1.835333405E0,7.951748303E0
7.295001542E0,6.143973541E0,-4.556225281E0,1.622625732E0,7.819239986E0
7.304922542E0,6.117628326E0,-4.607568512E0,1.609303436E0,7.825913460E0
7.314843542E0,5.913452911E0,-4.734953613E0,1.921105042E0,7.815328249E0
7.324764542E0,5.269791412E0,-4.816234589E0,2.340832214E0,7.513076108E0
7.334685542E0,4.391867065E0,-4.872367859E0,2.728526001E0,7.104457686E0
7.344606542E0,3.616928558E0,-5.136867828E0,3.010240173E0,6.966428725E0
7.354527542E0,3.070415039E0,-5.360353088E0,3.071313171E0,6.898825867E0
7.364448542E0,2.766247559E0,-5.655688934E0,2.997516632E0,6.973094638E0
7.374369542E0,2.649789734E0,-5.940696259E0,3.013832703E0,7.169131414E0
7.384290542E0,2.704126740E0,-6.149062958E0,3.074606323E0,7.387589642E0
7.394211542E0,2.809357910E0,-6.315965881E0,3.140319672E0,7.592464983E0
7.404132542E0,2.848576355E0,-6.542444916E0,3.165018311E0,7.806107457E0
7.414053542E0,2.878364410E0,-6.709647217E0,3.116519165E0,7.938327227E0
7.423974542E0,3.037782898E0,-6.686146088E0,3.064726868E0,7.957714824E0
7.433895542E0,3.281326447E0,-6.538702698E0,3.142115936E0,7.962074402E0
7.443816542E0,3.522025909E0,-6.403833160E0,3.365750885E0,8.046242892E0
7.453738542E0,3.717519379E0,-6.353986816E0,3.650309143E0,8.216924950E0
7.463659542E0,3.804937592E0,-6.440656586E0,4.047283630E0,8.505299061E0
7.473580542E0,3.865262146E0,-6.671326904E0,4.390669556E0,8.872701577E0
7.483501542E0,3.903732147E0,-7.074887695E0,4.847968597E0,9.423160834E0
7.493422542E0,3.886517944E0,-7.623197479E0,5.497318268E0,1.017048031E1
